# ---------------- Conditional Probability -------------------
# INPUT x_a: 24 Å | x_b: 43 Å | x_0: 50 Å
# INPUT kbT: 0.59616108  |  Ks: 10
# INPUT Double-Well PMF fit-params => depth: -0.4998241048936946 | bias: -4.516879560038931e-05 | x_offset: -32.48348797109661 | x_scale: 0.1847490231947087 | phi_offset: 0.2341367476211293 | phi_scale: 0.387206324456592
# OUTPUT Cond Prob Time Instants (sec): [ 0.00228, 0.0023, 0.00234, 0.005 ]
# ---------------------------------------------------------
X	COND_PROB_0	COND_PROB_1	COND_PROB_2	COND_PROB_3
24.0	-0.044998715961915208788	-0.03083391589899790924	-0.013580449311510893523	0.0036227469822309711884
24.19191919191919	-0.054941734179935831357	-0.0367909859064754947	-0.014682426132738857236	0.007361717380736550138
24.383838383838384	-0.060609498368846618152	-0.038935356420606952014	-0.012535119053657034496	0.013788197673568175008
24.575757575757574	-0.058510775480683938243	-0.034588743484108806933	-0.0054504585860232623526	0.023602928002865738607
24.767676767676768	-0.0467140030188829603	-0.022381748750169916663	0.007256208309494778823	0.036807811197964910237
24.95959595959596	-0.026110939655866937809	-0.0032219149752107748616	0.024658113037449517788	0.052456908841456974508
25.151515151515152	-5.7218787985501123012e-05	0.020041862488891290782	0.044523593661195524378	0.068933994019417788106
25.343434343434343	0.02730091080498297929	0.04398792026110634451	0.0643135696749681317	0.08457999757752291902
25.535353535353536	0.052643255845910982583	0.06591861926353596981	0.08208870554398906327	0.09821167810482639323
25.727272727272727	0.074135168036986325765	0.084372222847001533474	0.0968414904917503479	0.10927442724936352643
25.91919191919192	0.09123753689451098207	0.098949009503066102814	0.10834198606475750259	0.11770759492683310508
26.11111111111111	0.104193753552557613654	0.10988231442576613535	0.116811278796660003993	0.123720054698615860196
26.303030303030305	0.113570018157854272206	0.11765912752922909954	0.12263987639954285747	0.12760611318861706431
26.494949494949495	0.11996820098702049997	0.12278514159985423224	0.12621632245144277395	0.12963750609647415917
26.686868686868685	0.123889341304898966495	0.12567489181174518443	0.12784978562410422063	0.13001834259103817002
26.87878787878788	0.12569179335585312196	0.12662052824142825332	0.12775177585845984303	0.12887972743352106553
27.07070707070707	0.12559936967579793615	0.12580238797648530787	0.12604967487442946092	0.12629624126876142968
27.262626262626263	0.12373356271051284118	0.12331989248845708615	0.12281602054372260015	0.122313616697618804005
27.454545454545453	0.120157011021219292405	0.11923180964695839315	0.118104866031333518095	0.11698120591739245886
27.646464646464647	0.114921357351115114586	0.11359949802494497415	0.11198940429851524149	0.110384001796551874466
27.838383838383837	0.10811354800974512462	0.106527225197874242205	0.10459500112764293688	0.10266840685192854497
28.03030303030303	0.099893224967710173725	0.09819252698770607249	0.09612098798658556307	0.09405548469275685013
28.22222222222222	0.09051303680654049979	0.08885938517815258196	0.08684515109147262328	0.08483678574651453626
28.41414141414141	0.08031574638246738688	0.078869601531732574253	0.077108121542463971374	0.07535177386188462369
28.606060606060606	0.06970755573999890183	0.06861330017139923327	0.06728043971398747975	0.065951462724653033167
28.7979797979798	0.05911429171729495544	0.05848599847778949266	0.057720704483747836944	0.05695764027661229644
28.98989898989899	0.04893254526032137027	0.04884395532161312653	0.04873604814744187243	0.048628455375325144197
29.18181818181818	0.039488674297491977666	0.0399692652158180985	0.040554650065216508107	0.041138329317181265606
29.373737373737374	0.031014515418364651886	0.032051693047016930757	0.033315029591250198175	0.034574685234671123815
29.565656565656564	0.02364212019201251902	0.025188065143193884358	0.02707110686936199347	0.028948662100382657312
29.757575757575758	0.017414073858738525294	0.019395074667108994686	0.021808037159003519987	0.024213969160379024038
29.949494949494948	0.012302999995655851351	0.014629202928195789902	0.017462639644140946023	0.020287820761404144529
30.141414141414142	0.008233831083170653097	0.010807925777137758344	0.013943307610846622881	0.017069554088191910257
30.333333333333332	0.005104200304119104684	0.007828278140310045443	0.011146347277867256744	0.014454748775048202842
30.525252525252526	0.0028005481836413946505	0.0055809664036486699728	0.008967661072479430978	0.012344488151225383623
30.717171717171716	0.0012093621687979171218	0.0039598239016709958918	0.007310030003945747419	0.010650474830478364769
30.909090909090907	0.00022407504473262142725	0.0028673066949144270664	0.0060869009536990036648	0.009297114491901509927
31.1010101010101	-0.00025138409821109717135	0.00221705048429850775	0.0052237327815109362554	0.008221654705756413705
31.292929292929294	-0.00030134523961370587525	0.0019344784791730810718	0.004657828590452658449	0.0073732438551684617462
31.484848484848484	1.4201409514570953644e-06	0.0019562590192101458307	0.0043373549132675808187	0.006711513164421621253
31.676767676767675	0.00059474296706684757134	0.002229185880491380113	0.004220022748690509457	0.006205059046108365516
31.86868686868687	0.0014257682655755425994	0.0027088557843334591889	0.0042717234235080264964	0.0058300374377685679607
32.06060606060606	0.0024496088386201514315	0.0033583675475104016987	0.004465283137584502945	0.005568973580318969302
32.25252525252525	0.0036280969292671356445	0.0041471650257749833256	0.0047794170886314334756	0.0054098270001289316208
32.44444444444444	0.0049287137005844568034	0.005050082409978776452	0.0051979158395365559743	0.005345318536528706472
32.63636363636363	0.0063237320212724980765	0.0060466151226381548313	0.005709072260742584052	0.005372512875340448883
32.82828282828282	0.0077895862676688595	0.0071204235700878278483	0.0063053484406807992205	0.005492648142208289887
33.02020202020202	0.009306476658059571678	0.008259073811913979341	0.006983282418506205214	0.0057112082147877578404
33.21212121212121	0.010858220086305454254	0.009454024205116311224	0.0077436402525881405775	0.0060382397335789441232
33.4040404040404	0.0124323713311170979764	0.010700877099703948975	0.008591826655262974968	0.00648892121274539862
33.5959595959596	0.014020655327708493014	0.0119999269028655318895	0.009538574098339409846	0.0070843927760117533115
33.78787878787879	0.01561976994693612404	0.0133570468405984412105	0.010600931869788777267	0.0078528472103646813
33.97979797979798	0.01723263435038094665	0.014784960918441485251	0.011803566787393684065	0.008830859348842018403
34.17171717171717	0.018870161243890907539	0.01630493548605921891	0.013180356479965238034	0.010064881354744692066
34.36363636363636	0.02055360605726993551	0.01794888121384878018	0.014776190257679463853	0.0116127433630163092625
34.55555555555556	0.022317466870874053442	0.019761759179851465482	0.01664877367644999513	0.013544858274693714554
34.74747474747475	0.02421274140538702952	0.021804007303939447373	0.018870043312010911719	0.015944627818493641185
34.93939393939394	0.026310055904257228516	0.024153423287353092955	0.021526532075901940794	0.018907294665045967048
35.13131313131313	0.02870174981723861112	0.026905561608264492725	0.024717710518893698874	0.022536234027716005702
35.32323232323232	0.03150147755069273883	0.030171293851699303725	0.028551060604222289714	0.026935548124068950931
35.515151515151516	0.034839444130486705193	0.034069923632495977418	0.03313260745849450943	0.032198022281140017382
35.707070707070706	0.038851360736214725053	0.03871645118774446937	0.038552124308683309887	0.038388276218069604718
35.898989898989896	0.043660043695435744625	0.04420262117927779278	0.044863508904272870865	0.045522471044058761838
36.09090909090909	0.049350633266216265008	0.050573463487326823486	0.05206293458952289252	0.05354806591747981712
36.282828282828284	0.055943499886213867068	0.05780382109942946082	0.060069789538916070533	0.06232915577481115108
36.474747474747474	0.06337195975030468305	0.06578173016640245222	0.06871695644372235908	0.07164363054479286376
36.666666666666664	0.071473100156474813495	0.074305821414760589657	0.07775622391704850179	0.08119657320791658114
36.858585858585855	0.079997706567137870354	0.08310095315230162235	0.086880869637676202213	0.09064977282835499378
37.05050505050505	0.088639535652296189235	0.091850542806849865925	0.09576171729623150726	0.09966149605308178861
37.24242424242424	0.0970773295167166954	0.10023799362149590902	0.10408784764582772406	0.10792648460304448935
37.43434343434343	0.105018484827521212794	0.10798633515407998884	0.1116013319220187128	0.11520579591102338442
37.62626262626262	0.11223344880540490485	0.11488636687169817172	0.11811775969142178373	0.12133973741387031913
37.81818181818181	0.11857425277232701293	0.120808290265418364484	0.12352946466047060179	0.12624271054820070677
38.01010101010101	0.123976488280825126945	0.12569737502303447843	0.12779350499138387916	0.12988352760335346908
38.2020202020202	0.12844865190873177683	0.12955812850347040008	0.13090952896601807049	0.13225699194169171875
38.39393939393939	0.13205468214096736893	0.13243270330912569254	0.13289315284354991353	0.13335226079637179644
38.58585858585859	0.13489481330991755585	0.13437833951900963174	0.1337492474559263663	0.13312198833711801359
38.77777777777778	0.13708745819168026435	0.13544659395622751911	0.13344793558228392762	0.13145510056812979552
38.96969696969697	0.13875139548801970292	0.13566489042487069368	0.13190536598805465706	0.12815679543096026867
39.16161616161616	0.13998317168455289045	0.13501897822104388784	0.12897233120336377433	0.122943301904430828006
39.35353535353535	0.14081931603564215406	0.13343341695419492281	0.12443700595973888127	0.115466807217820622636
39.54545454545455	0.14116870834975414029	0.13074707583715474015	0.118052982906472760486	0.105395875921613198325
39.73737373737374	0.14070585132100548677	0.12668508634183311838	0.10960706201218106591	0.09257879680167676108
39.92929292929293	0.13875039710228433641	0.120844568624220930804	0.09903433395833794445	0.07728764634241996863
40.121212121212125	0.13423902962738223625	0.112742754698686260124	0.08655916865509295843	0.06045187200847611895
40.31313131313131	0.12597618417942080217	0.1019981683123794676	0.07279169213490865975	0.04367031295109169909
40.505050505050505	0.11325686229521351141	0.088652411324943145187	0.058682904460502999473	0.028800717782173475799
40.696969696969695	0.096561338466052986626	0.073451764321791237674	0.045303095538749082864	0.017236441685349220781
40.888888888888886	0.07768654363277517882	0.05778433961623987311	0.03354241523386911129	0.009371122956268146113
41.08080808080808	0.059039038825932568936	0.0431978755925554325	0.02390251107346671124	0.004663366192175178982
41.272727272727266	0.042622784843586126666	0.030831527002078415709	0.0164691588578578032	0.0021486374035081772828
41.464646464646464	0.029463552744293335896	0.02115040660646886916	0.011024560248683352273	0.00092821690516126120295
41.656565656565654	0.019658905676254876211	0.014042514427122656861	0.0072014564292168439067	0.0003803307732168442697
41.848484848484844	0.012749015222318957053	0.009078335242158597613	0.004607255233281241056	0.0001492023169168380201
42.04040404040404	0.008079504806173574421	0.005742159253328147207	0.002895150243648955867	5.643637735361419762e-05
42.23232323232323	0.0050233536422578342365	0.0035659360632988879227	0.0017907253020531982712	2.0686855946317068568e-05
42.42424242424242	0.0030725052704613516117	0.002179546149960458989	0.0010918752840731447945	7.3734934350825840955e-06
42.61616161616162	0.001852172264029868749	0.0013133285970704677731	0.00065698885613039959836	2.5614492367311822156e-06
42.8080808080808	0.0011017570422010242046	0.00078103724078398528	0.00039038376504726543068	8.6851071540182061066e-07
43.0	0.00064721134964640239076	0.00045874429261341167734	0.00022918156974282765718	2.8770871824570252637e-07
