# ---------------- Conditional Probability -------------------
# INPUT x_a: 13 Å | x_b: 26 Å | x_0: 50 Å
# INPUT kbT: 0.59616108  |  Ks: 10
# INPUT Double-Well PMF fit-params => depth: -0.4942281975503514 | bias: 0.0056908293472983 | x_offset: -20.00496195481475 | x_scale: 0.1939353082825816 | phi_offset: 0.0529141095212163 | phi_scale: 0.4804066547625805
# OUTPUT Cond Prob Time Instants (sec): [ 0.000231, 0.000232, 0.000233, 0.000234, 0.000235, 0.00024 ]
# ---------------------------------------------------------
X	COND_PROB_0	COND_PROB_1	COND_PROB_2	COND_PROB_3	COND_PROB_4	COND_PROB_5
13.0	0.025116379328717624257	0.014024471285588585769	0.0042916493790030953702	0.00022229998384462480842	0.0	0.0033047356345647171764
13.131313131313131	0.019107975246173575266	0.009244559004934705927	0.0016478844044046426918	0.0	0.0016828318433656343765	0.0077644254132754423324
13.262626262626263	0.01298402090124566084	0.004828168978416285803	0.0	0.0013441445411616135662	0.0053184336274929671474	0.014663764251099395229
13.393939393939394	0.0072659024067362052535	0.0014536706721173057736	0.00018319710150305344268	0.005183068521096040452	0.0118721995244641549714	0.024978053021685100323
13.525252525252526	0.0026569102867643859418	0.0	0.0032410836755575330397	0.012644465284907609618	0.022494088830975201501	0.039836248559807583975
13.656565656565657	0.0	0.0014820796009949092903	0.010335897309265585172	0.024946993372072525884	0.03839984242856825652	0.060392219300572781425
13.787878787878787	0.00017996440158956471778	0.00691596807464379323	0.022574402529978246296	0.043199991526795253643	0.06065793338002603696	0.08760263370543513575
13.919191919191919	0.0039718838728695269806	0.01711823855628394342	0.04075721555715318064	0.06812177282109805218	0.08989444669145775709	0.12192568486047762042
14.05050505050505	0.011859239419503782746	0.032472408124157209568	0.06509452167523630256	0.09972639597923139333	0.12596928748404698406	0.16299677443345648793
14.181818181818182	0.023866189352146653104	0.05272271138195063576	0.094964972344088380735	0.13706640450190740214	0.16771620937221586038	0.2093767719448017184
14.313131313131313	0.039457757746698612796	0.076866814214192172464	0.1288076867005492637	0.17813297456855527282	0.21285320260233000623	0.25848199468582242077
14.444444444444445	0.05755049069922958421	0.103202607394949486414	0.16421499996684881777	0.21998845191794087615	0.2581410707858222037	0.30677432732065430622
14.575757575757576	0.07664558763522111926	0.12954136175264257649	0.19823751506859429755	0.25914113521297361297	0.29979834215642133332	0.35021667560361818787
14.707070707070708	0.09505838266693770499	0.15354633074227134257	0.22784369703846947484	0.29209191360876519606	0.3340949505900507157	0.38490910382771565383
14.83838383838384	0.11118837257542525505	0.17311474995149629562	0.2504229120225238979	0.3159208254243574292	0.3579815348915661853	0.40775245456170847798
14.96969696969697	0.12376405439482394366	0.18670847060642621046	0.2642053875122346108	0.3287646491522889544	0.36959370591714013098	0.4169687633546144583
15.1010101010101	0.13200828367521798637	0.19355711813960137269	0.26849954805364681794	0.33006998538719085608	0.36850767828375631535	0.41234862346436585467
15.232323232323232	0.13569602568707741227	0.19369820290625247819	0.26370402185796707343	0.3205752785519560559	0.35569950230351965093	0.39517817617615848462
15.363636363636363	0.1351069010515713116	0.18786519886119676757	0.2511163012085278181	0.30205326926364072803	0.333245616506217593	0.3678910032986537818
15.494949494949495	0.13090006560507794754	0.1772716672473148947	0.23261031492150572114	0.27690514332265385108	0.30386734603966729883	0.3335597250136319672
15.626262626262626	0.12395223436629653718	0.16335675833988474567	0.21027640633681360608	0.24772123796433339432	0.27044650279048560135	0.29536687987892357927
15.757575757575758	0.11519927856238089233	0.14755279888208199969	0.18610710886630352208	0.21690824513918858767	0.2356211242996176549	0.2561726071913244396
15.88888888888889	0.10551074153863282173	0.13111513173122809707	0.1617802897636703665	0.1864420082284029394	0.20152405779645811014	0.21824428487339157229
16.02020202020202	0.095610799920194951456	0.1150283673817789218	0.1385534254081950626	0.1577581346829873257	0.16967493258796042869	0.18315564970802695744
16.151515151515152	0.08604475664708712639	0.09998148206523429086	0.1172528893274562899	0.13175680596085542722	0.14099694113294938374	0.15182073360449378678
16.282828282828284	0.077180913738576564366	0.08639198937732537063	0.09832690428212585277	0.1088810704463402014	0.115911952960221562745	0.12460969960149696404
16.414141414141415	0.06923438459966946946	0.07445679959414894975	0.08192936979470966727	0.08922779364098902107	0.094468419042254634146	0.10149611720620644281
16.545454545454547	0.062300585992650994445	0.0642111958017873505	0.068008905535855561607	0.07266040210858026072	0.076468320326691251307	0.082199204508124124535
16.67676767676768	0.056389549923582228834	0.055583743247130519937	0.05638740999081682431	0.058905382952032307105	0.06157398858753030827	0.066301072273344685786
16.80808080808081	0.051455935682007916513	0.04844105965066278803	0.046821286802427180568	0.047625454341701657293	0.049387803441884629216	0.053332437176327666566
16.93939393939394	0.047422638646551677164	0.042620840828037599095	0.03904456880017012815	0.038469562653019253543	0.03950563998469514139	0.042828715134336497516
17.070707070707073	0.04419785654821563252	0.037954143193504677874	0.03279643497037346323	0.031103537435387368165	0.03154879652156760185	0.034362347343723587626
17.2020202020202	0.04168649826467354884	0.034279055756801546192	0.02783679284414661482	0.02522636349775926668	0.02518017783615252398	0.027558084998552745151
17.333333333333336	0.039797184240177606524	0.031448088069098281182	0.02395353890002297633	0.020576712651557596865	0.02011000374581767428	0.022097193622612503117
17.464646464646464	0.03844606883992122995	0.029331317053161309783	0.020964484062358826903	0.016933450707914948292	0.016095185502886834953	0.017715163811909282512
17.595959595959595	0.037558520033442873427	0.027816882977838016843	0.018716161626467950013	0.01411280172222005415	0.012935312293467903581	0.014196121704929328813
17.727272727272727	0.03706944808647536241	0.026809973048323457475	0.017081034979987504134	0.01196395301697050657	0.010467170884784063106	0.011365980470069894928
17.858585858585858	0.036922848007094463802	0.026231054236721063971	0.015954071463818539474	0.010364199085377772116	0.008558957272244639722	0.009085527937461805891
17.98989898989899	0.037070936066373274367	0.026013833390811147677	0.0152492530094095498715	0.009214243628476678679	0.0071048137185759855314	0.007244075011587919212
18.12121212121212	0.037473123020802193028	0.026103224202815335488	0.014896329252402480038	0.008433967234916622227	0.0060199882242878737145	0.005753932157667318907
18.252525252525253	0.038094969699742056524	0.02645346939283130718	0.014837951849102603669	0.007958778087386416806	0.0052367125600406575384	0.0045457736797989908706
18.383838383838384	0.038907205830318931294	0.027026484402864563	0.0150272300824860435005	0.007736555443454583823	0.0047007844698462307744	0.0035648398879953110494
18.515151515151516	0.03988485141735165251	0.027790440298256651221	0.015425693843688247115	0.0077251405052518930123	0.0043687857648167673383	0.0027678777760678445485
18.646464646464647	0.04100645463834652372	0.028718576880755911193	0.01600162393359679338	0.007890305869601094332	0.004205847638951028531	0.0021207059582588000725
18.77777777777778	0.042253445720101701992	0.029788224076619015182	0.01672870000966602879	0.008204129348691874377	0.0041838726493576139197	0.0015962930790827722609
18.90909090909091	0.043609598450703756493	0.030980004646555463758	0.01758491582042363732	0.0086437017965908948165	0.0042801300461613620684	0.0011732509053945953206
19.04040404040404	0.045060587656755578685	0.03227719103517993108	0.018551715458207151642	0.009190106783217487013	0.0044761522519728055067	0.0008346582592012588061
19.171717171717173	0.046593629924429970852	0.03366519108108222545	0.019613310194698774695	0.009827619367218344403	0.004756872137479249609	0.0005671468898451153421
19.303030303030305	0.048197195350386271702	0.035131140406215159537	0.020756141878323912239	0.010543080528521913189	0.0051099519565108083674	0.00036019393040602118275
19.434343434343436	0.04986077922331472942	0.03666358260159132183	0.021968464905226758144	0.011325412179184559632	0.0055252646598205805244	0.00020557721902447758475
19.565656565656568	0.051574723973417241022	0.038252221549314928784	0.023240024188443794158	0.01216524489840272237	0.0059944966757460114616	9.695945072022215909e-05
19.696969696969695	0.053330083263334864154	0.039887733195323872153	0.024561811252907467036	0.01305463663743810112	0.0065108482040479728084	2.9575041150170278397e-05
19.82828282828283	0.055118521518205043254	0.041561626666196149667	0.025925884533802972313	0.0139868656797649732	0.0070688127674320724264	0.0
19.95959595959596	0.05693224360288849223	0.043266146955912945157	0.027325243358493115585	0.014956285368792425132	0.0076640224745510122082	5.9903213334072098688e-06
20.090909090909093	0.05876395060581702825	0.044994213410847214926	0.028753747956796946362	0.015958231634118814471	0.008293149343130527648	4.6378672973737744094e-05
20.22222222222222	0.06060681890408436958	0.046739390076822395947	0.030206080375944871001	0.01698897738871620349	0.008953856355100347902	0.000121022755573294984967
20.353535353535356	0.062454500846352160558	0.048495885666508739472	0.031677743457554521894	0.018045730568129733658	0.009644794837104075868	0.00023080181940904950854
20.484848484848484	0.06430114660203369571	0.050258582592210522967	0.033165097228108581507	0.019126675119957663835	0.010365647467545726933	0.00037766066245659256762
20.616161616161616	0.06614144796364485843	0.052023096197592257998	0.034665434215638945253	0.020231056723128051392	0.011117218829873183773	0.0005647031488356490778
20.747474747474747	0.06797070633831565976	0.053785867212723084263	0.036177097539073855713	0.02135931761532463837	0.011901578137795753573	0.0007963400254087394393
20.87878787878788	0.06978492882395811566	0.055544292571561204472	0.037699648172957458205	0.022513287708498440782	0.012722261643568902735	0.0010784986890080431939
21.01010101010101	0.07158095822945522873	0.05729690217278316438	0.03923409067556090819	0.023696442278062747603	0.01358454539867375282	0.0014189056443601959063
21.141414141414142	0.07335664535055900188	0.059043592109473266915	0.040783170031198111078	0.024914240029099956207	0.014495802539320054632	0.0018274557082676256143
21.272727272727273	0.075111074674289225275	0.060785928245727498394	0.042351755990349997667	0.026174559161071652402	0.015465963006637134803	0.002316685455242842407
21.404040404040405	0.07684485818997308768	0.06252753794225131604	0.043947335442982648325	0.027488253097878084212	0.016508097417042095714	0.0029023716659941810351
21.535353535353536	0.078560515904304876336	0.06427461188527070236	0.04558063746210379253	0.028869851262282302627	0.017639150061892255434	0.003604277976895372309
21.666666666666668	0.08026296587374954491	0.06603654200273659426	0.04726641906262323093	0.030338432760074053204	0.01888084768391444142	0.0044470732916274599115
21.7979797979798	0.081960150328964477085	0.067826724221706457006	0.04902444086450835367	0.031918700211536220697	0.020260808686700087512	0.0054614415749590361654
21.92929292929293	0.08366382657947756365	0.069663554476425376136	0.050880658123495729814	0.033642274059573133982	0.021813868299814979658	0.006685390610023184194
22.060606060606062	0.08539054923854407233	0.071571639261420892265	0.05286863922275162432	0.03554920895997628122	0.023583613028597102295	0.0081657409544947209615
22.19191919191919	0.08716285960224269823	0.07358322222056184573	0.05503119306926633995	0.03768969453913835887	0.025624073126535777069	0.0099597259457472974436
22.323232323232325	0.08901067142351745766	0.07573978607847852382	0.057422126808872973644	0.040125829298580026883	0.028001440608867778446	0.01213654466213679055
22.454545454545453	0.090972788193283631824	0.078093709804853171785	0.060107947905284803932	0.0429332290654426198	0.030795542196173226321	0.014778562033085333922
22.58585858585859	0.093098388694419535314	0.080709723712976084916	0.063169145871991847616	0.04620202444281712607	0.034100575553045448123	0.017981618611747841949
22.717171717171716	0.09544815259200178845	0.083665684298398463184	0.06670041035239610454	0.05003648649848092846	0.038024285473423078572	0.021853571762338765835
22.84848484848485	0.09809444244141484409	0.08705186172040179279	0.07080874089884847316	0.054552076846153638686	0.04268429801590582751	0.026509729721988308234
22.97979797979798	0.10111959871930951846	0.09096748980400053082	0.07560788511132843576	0.059868164167863919863	0.048199770167800633743	0.03206329660299773921
23.111111111111114	0.10461096340706943509	0.09551282058832395876	0.08120698698788988016	0.066094091592823493795	0.054675974326681215054	0.038608462571708059164
23.242424242424242	0.10865083578296690102	0.100774521928300252756	0.08769097177048463529	0.073306002494723840314	0.062179232387778908448	0.046193687093491013067
23.373737373737377	0.11329945098886271823	0.10680233158245775788	0.095090522772849509925	0.08151239676079175016	0.070700341178775003104	0.054783659291781949177
23.505050505050505	0.118569751829367679186	0.1135760746675103572	0.103341304592102274864	0.09060866528096149419	0.080107192134308792676	0.06421128748756163633
23.636363636363637	0.124394875672080538414	0.12096527202676777742	0.112236272280859494106	0.10032578976007063292	0.09009262721271482975	0.07412675595622310757
23.767676767676768	0.13059344511541600914	0.12868912010192221708	0.121381883398547153586	0.11018626809041626152	0.10013184345556571073	0.083959161826924673844
23.8989898989899	0.13684357392926101671	0.13629179396913486554	0.13017742669592307801	0.11948929657067776454	0.109472732595498687185	0.09291504427050806429
24.03030303030303	0.14268166802823255778	0.14315344784875191916	0.1378419685084137788	0.1273519531451708175	0.11718662291985894697	0.10004105821079178217
24.161616161616163	0.14754200610296238975	0.14855496162759548084	0.14350820484360805725	0.13282536234171044088	0.12229742967509635824	0.10436648629552771096
24.292929292929294	0.15084286511941297	0.1517989148790201628	0.1463809182334760298	0.13507879575206010286	0.123978723673110373984	0.10511043091130542291
24.424242424242426	0.15210450956034601288	0.15236204062585917299	0.14592354531550833267	0.13360609543241194408	0.1217677267925839108	0.10189704205012989022
24.555555555555557	0.15106282137968946848	0.15002897786347957095	0.1420078166590459504	0.12837940039306691903	0.11571629687471062502	0.09489525085716986547
24.68686868686869	0.14773514955474412646	0.14495326610142585382	0.13496251620649960016	0.119881272242846760244	0.10640878362509329621	0.084814385803522654694
24.81818181818182	0.14241156286820470544	0.13761855569520298719	0.12549647744523034502	0.10899459483692377847	0.09483026238229335609	0.072746153683734301244
24.949494949494948	0.13557743079133387538	0.1287172681429824003	0.114527198869715055465	0.09679364788376688775	0.08213628032867560655	0.059913298479393684036
25.080808080808083	0.12780139605267173085	0.118997221179247358786	0.10298388248591311633	0.0843183704734538862	0.06941330881305634893	0.047420675234282038504
25.21212121212121	0.11962994180633420953	0.10913008252130974324	0.09165148426822422481	0.0724060570493941755	0.057507268896157766392	0.03608713184361475207
25.343434343434346	0.11151632488923334956	0.09963325170653047964	0.08108984374838126578	0.061614297665030989977	0.04695243496690691856	0.026386716262627176584
25.474747474747474	0.10379073940892094014	0.09084804034402139572	0.0716249596398418164	0.052226482726307931054	0.037987871220863836714	0.01848072605485746621
25.60606060606061	0.09666298596069625135	0.08295803791933567959	0.06338749304442340092	0.044307917429273301324	0.030625170436152321435	0.012299672369364702602
25.737373737373737	0.09024327240462625852	0.07602660867008218479	0.056370065921680970713	0.037778839341721967058	0.024730960552387478864	0.0076361116755665035707
25.868686868686872	0.084568640601957709546	0.0700369681748555112	0.050482677704830307506	0.03248110548931338665	0.020099841198001667215	0.004223502850707109328
26.0	0.079627335455477283346	0.06492573133011035567	0.045595974374744715638	0.028227933305495801634	0.016507270787015996536	0.0017913101612432284753
