# ---------------- Conditional Probability -------------------
# INPUT x_a: 12 Å | x_b: 26 Å | x_0: 10 Å
# INPUT kbT: 0.59616108  |  Ks: 10
# INPUT Double-Well PMF fit-params => depth: -0.4942281975503514 | bias: 0.0056908293472983 | x_offset: -20.00496195481475 | x_scale: 0.1939353082825816 | phi_offset: 0.0529141095212163 | phi_scale: 0.4804066547625805
# OUTPUT Cond Prob Time Instants (sec): [ 1.05e-05, 1.1e-05, 1.2e-05, 1.3e-05, 2e-05 ]
# ---------------------------------------------------------
X	COND_PROB_0	COND_PROB_1	COND_PROB_2	COND_PROB_3	COND_PROB_4
12.0	0.0427684721683765143	0.02738454645634534444	0.011139928493228394941	0.0042701643363386186374	0.0
12.141414141414142	0.045077575325367028056	0.029143535902640192115	0.0121712288715791049965	0.004889559826119451574	9.783994952037551194e-05
12.282828282828282	0.04815754907487167303	0.031501682794666753364	0.013574544966040135564	0.0057523985510557991972	0.00027632416863935337687
12.424242424242424	0.052234547593089964385	0.034644634840538193356	0.01548194262803872605	0.00696041661092707321	0.00059878510997019951756
12.565656565656566	0.057590643347403157145	0.038811232541152283506	0.018075075219188332771	0.008662896862865904507	0.0011735179744620529657
12.707070707070708	0.064574349668363291934	0.044308065120591107955	0.021605074858306508365	0.011079580198625057856	0.0021805159624817961123
12.848484848484848	0.07361137260661216714	0.051526893427294952354	0.02641879976357559636	0.014531907919014262524	0.003909037377162059225
12.98989898989899	0.08521336232140296979	0.06096316216191164589	0.032990258094726755245	0.019481754133128809556	0.0068055921464229319467
13.131313131313131	0.09997965699999766409	0.07323040681576073806	0.04195176550208326758	0.026572064909752997432	0.011526586615431641419
13.272727272727273	0.11858248806574743178	0.08905962117914145173	0.05411204649089152046	0.036655563850573159183	0.018980456209529695352
13.414141414141413	0.14172034959018423356	0.10926513811332784109	0.07043866518952593523	0.050786550903946168264	0.030331326103008878218
13.555555555555555	0.17001982625163954598	0.13465235863259550285	0.09197356042309366577	0.070140855982402540894	0.046924559613743846
13.696969696969697	0.20386870686851269474	0.16584435844163816803	0.11965104481268984262	0.095828965863028706416	0.070093715906786597165
13.838383838383837	0.24318004012674738853	0.20302269669359657559	0.15400786249922941765	0.12858867543664871693	0.10083116109898542287
13.97979797979798	0.28712183648652643022	0.24561734040929763216	0.19482049599979166268	0.16839261064637243175	0.13935787868727068539
14.121212121212121	0.33389274726286171028	0.29203293121227183153	0.24076607041304510043	0.21407213454827091747	0.184700528417395991
14.262626262626263	0.38065680365698978673	0.33953722349731878258	0.28924954491996464283	0.26310987043104088574	0.2344400721673433698
14.404040404040405	0.42373958140701541633	0.3844282172571395223	0.33653244238483121724	0.3117466934562848665	0.28479124089886630596
14.545454545454545	0.45911807895503218386	0.42252181971294516113	0.3782175789567761169	0.35546480059913962445	0.33108350312913907698
14.686868686868687	0.48312537024402455788	0.44988201024400416368	0.41001297638585016856	0.3897707255097828717	0.36856826750812338335
14.828282828282829	0.49318828426905021695	0.46360430318445200077	0.42857588678491498823	0.41107364408367723214	0.39334059487904118486
14.969696969696969	0.4883758754520564742	0.46241818313139774774	0.43218661261921450273	0.4173996014059245702	0.40310458866292326404
15.11111111111111	0.469584607144066579	0.4469221827048837059	0.42104958446820517893	0.40872994849595539786	0.39755913568982292693
15.252525252525253	0.43930629979737800296	0.41938831648113744418	0.39714605823408752837	0.38688135871034508311	0.3783125142695876471
15.393939393939394	0.40106529672516273968	0.3832172704726936314	0.36371314635525014183	0.35499835445445894445	0.3483920089547768525
15.535353535353535	0.35871090350362107603	0.34222991734033708682	0.32453411050166748624	0.31684290787825364336	0.31153263502393611833
15.676767676767676	0.31577067564095121264	0.30000433683322701782	0.28325386376458546218	0.27609776276404584907	0.27146503762464230044
15.818181818181818	0.27501188788944743656	0.2594120331568220626	0.24288178481459752478	0.23585034095869718867	0.23137545717108093413
15.959595959595958	0.23826135214027911814	0.2224105791430522042	0.20554841673552077817	0.19832909452318001837	0.19361631844436822326
16.1010101010101	0.20644635949294151991	0.19006118446821456159	0.17249211636875410309	0.16487265359763585238	0.15965321801779725131
16.242424242424242	0.17977270333008110797	0.16269031186002972659	0.14419896755586995248	0.13605745478556649657	0.13017699750648719506
16.383838383838384	0.15795230694609603669	0.14010842169955914999	0.12060977529461142046	0.111898084026569262025	0.10529566455989490792
16.525252525252526	0.14041667187325927833	0.121820797992841419	0.10132742286644184043	0.09205267020141531239	0.084737300247254399184
16.666666666666664	0.12648332806142946789	0.10719559432008409064	0.08578702866569414425	0.075994236814621993615	0.06802292366810861296
16.80808080808081	0.11546753652827165522	0.095579351955859631344	0.073376511414096635144	0.063134124092390915226	0.054593531446915806875
16.949494949494948	0.106746201036621604625	0.086365425878331277684	0.06351098771711875475	0.052899766704410881624	0.043892155433240940796
17.09090909090909	0.09978659245435368007	0.07902697854881547309	0.05567141342143931806	0.04477653190557154729	0.03540974862386836646
17.232323232323232	0.094152463339199746645	0.073126660520545245457	0.049418981351441778818	0.038324787379869078044	0.028705633906890081276
17.373737373737374	0.0894975499033256925	0.06831284605465968468	0.044394972992591411672	0.033181799781294332966	0.023411994341377826534
17.515151515151516	0.085553341472024202434	0.064309359873850411886	0.0403130743500483712	0.029055516142829630483	0.019229510251862995448
17.656565656565657	0.082115320358768876207	0.060903034467696247263	0.03694867594754788067	0.025714850318608521768	0.01591889470873773097
17.7979797979798	0.07902993317865254021	0.057931512626699694447	0.03412777489800631507	0.02297920744189597979	0.013291206055501023858
17.939393939393938	0.076183302142411036845	0.05527244262444313361	0.031716810171712689672	0.020708681510894188291	0.011198504262509027964
18.08080808080808	0.07349195646522849015	0.052834458233513622783	0.029613971469141768749	0.018795550409411781964	0.009525581648769420407
18.22222222222222	0.070895487119824987396	0.05054993081362800457	0.027742080063628081275	0.017157229630429528697	0.00818300888756994236
18.363636363636363	0.06835086530595905647	0.04836929352519521584	0.026042920613156438605	0.015730608388831288787	0.007101476565076556734
18.505050505050505	0.06582812134707648186	0.0462566749064267368	0.02447281478889819077	0.014467589316338870965	0.006227291908412844802
18.646464646464647	0.06330709644756649508	0.044186580629863126473	0.022999210434944150419	0.013331625207276360923	0.0055188491646574663696
18.78787878787879	0.060775020044941349523	0.042141392604149019265	0.021598077160636218936	0.012295056019880377713	0.0049438924139797848026
18.929292929292927	0.058224711888738528915	0.040109494233096796935	0.0202519299825370132	0.011337074998403514609	0.0044774088598694619583
19.07070707070707	0.055653251543192454297	0.038083869786219154963	0.018948335924340634492	0.010442182760661929005	0.004100016425329582621
19.21212121212121	0.05306099524211281205	0.036061060265004503773	0.017678789207573681026	0.0095990168227164047705	0.0037967354550691646654
19.353535353535353	0.050450850121157058685	0.034040386557822930553	0.016437866841485937391	0.008799468943911905258	0.0035560576347663934403
19.494949494949495	0.047827739473262443652	0.032023373321406865535	0.015222597775169604271	0.008038023299705618247	0.0033692449378000636491
19.636363636363637	0.0451982107958721377	0.03001332464314276349	0.014031995721139104977	0.007311265056600439428	0.0032298074964546460659
19.77777777777778	0.04257015213992667509	0.028015016069767209559	0.0128667190132001178426	0.006617522019872445605	0.003133122191897087633
19.919191919191917	0.039952592690767456068	0.0260344779726065404	0.0117288311988512288364	0.0059566123355174046495	0.0030761640341798810707
20.060606060606062	0.037355571392522914948	0.024078853188717495168	0.0106216441518143371	0.0053296793789313982005	0.0030573306378517375791
20.2020202020202	0.034790063552440747086	0.022156318150604556436	0.009549631959944843006	0.004739101543630984618	0.003076346820267712707
20.343434343434343	0.03226796014086341722	0.020276061718462716168	0.008518409138758689717	0.004188470104559189679	0.0031342420214439662236
20.484848484848484	0.029802098475815207482	0.01844832016304482525	0.007534771300054358855	0.0036826331051015026695	0.0032333982662165147755
20.626262626262626	0.027406346332273547959	0.01668447043750466114	0.0066068005439833670294	0.0032278076097526821366	0.0033776711038212341786
20.767676767676768	0.025095744515489915154	0.014997187298575669086	0.005744041824099709516	0.0028317669620664248178	0.0035725906584753280166
20.909090909090907	0.0228867156308014402	0.013400673083908356171	0.0049577605134008504516	0.0025041140803580550186	0.0038256548420376244127
21.050505050505052	0.020797349192632937935	0.011910972079379630088	0.004261295474454258129	0.0022566564353741396403	0.004146732071092760269
21.19191919191919	0.018847775011227876388	0.0105463841721831633276	0.0036705259767292627088	0.0021039031175914445178	0.0045485965102534213387
21.333333333333332	0.017060637559524006324	0.009327994508526782404	0.003204474492857917251	0.0020637090332090357404	0.0050476246886499766307
21.474747474747474	0.015461682547693489375	0.00828033607332467825	0.0028860698177560781126	0.002158094933128344928	0.0056646875883909487594
21.616161616161616	0.014080461587170951495	0.0074321988658440967134	0.0027430944919830230021	0.0024142730907641691457	0.0064262754084586980133
21.757575757575758	0.012951148288149583936	0.0068175894005136839917	0.0028093339960996832534	0.002865903871522266883	0.0073658900929725169835
21.898989898989896	0.0121134343442061566015	0.00647682242140279331	0.0031259272438396272253	0.0035545927064011510575	0.008525727778870341764
22.04040404040404	0.011613429240562586974	0.0064576846514845557968	0.003742879604161666873	0.004531600818223274446	0.0099586398559246044315
22.18181818181818	0.011504409881558103109	0.006816534871085914463	0.0047206265553943016345	0.0058596712805663035165	0.011730291283614994701
22.323232323232325	0.011847139901365155039	0.007619076777382039811	0.0061314064979425054834	0.007614741431093289593	0.0139213030080626201824
22.464646464646464	0.012709281443558843828	0.008940335817652319565	0.008059985039175066097	0.009887090247832290105	0.016628935058243586143
22.606060606060606	0.014163133277775828301	0.010863060484070249348	0.010602933538620471129	0.012781113457735176125	0.019967490404970997464
22.747474747474747	0.01628054099201169256	0.013473334683586116305	0.013865170316638084533	0.016412390510066912472	0.024066047659574761498
22.88888888888889	0.019123374818804107662	0.016851653728354327594	0.017951827895041287848	0.02089999970038723613	0.029061343309499363593
23.03030303030303	0.022727602135682992071	0.021057210654892697068	0.022952822155121051034	0.026351247428149765367	0.03508270369459587431
23.17171717171717	0.027079041962320982568	0.026103002986002586807	0.028917102276991278583	0.032835433135759768737	0.042225195836966576257
23.313131313131315	0.032080036697463697812	0.031920288479175086834	0.035814175183807651686	0.04034371450219021172	0.050507391685141997107
23.454545454545453	0.0375094929780858353	0.038313974311736865357	0.043483341503935994377	0.04873486040294967515	0.059812710883383945686
23.595959595959595	0.042984973361850858884	0.044916886015602466223	0.051577616594214076522	0.05767331454793437619	0.06982006776580091648
23.737373737373737	0.047944548140361578577	0.051160661929730511098	0.059520130622410255518	0.066577391095630098614	0.07994167844156443719
23.87878787878788	0.051674558618833629173	0.056291180707779074608	0.06650323834589352191	0.07460914785996118566	0.089301238619304674825
24.02020202020202	0.053409090530883894862	0.059458575391950544613	0.0715660203924671872	0.080744804784967076614	0.0967953738056280846
24.16161616161616	0.052507041955698372746	0.059894027759986518333	0.07377071572940944053	0.083950971574571477764	0.10126960756662028228
24.303030303030305	0.048669897159149884084	0.057142084870219056006	0.07245427526163772577	0.083447090331915588354	0.101794591912620809426
24.444444444444443	0.042115763705974055802	0.051264446939373833185	0.067471503949351424256	0.07897085395472702702	0.0979597320013754984
24.585858585858585	0.033612195692358078596	0.042909706068550975925	0.059313631258176319676	0.070924417547499203935	0.09005439664172333497
24.727272727272727	0.024321731228341862548	0.03318875561828912342	0.04902323500061407302	0.060311689236130907124	0.07903353025496154488
24.86868686868687	0.015509806924694886471	0.02339309600118964328	0.037926292722435814386	0.048478162181402563875	0.066267336747997019875
25.01010101010101	0.008237683884568643819	0.014675773660957656385	0.027297264290825778412	0.036767021733499502657	0.053186021939601271007
25.15151515151515	0.0031594758875312005055	0.007821671375669591803	0.018094013394516564953	0.026234046591654377886	0.040969344888595001353
25.292929292929294	0.00047334106354743509245	0.003169331391936688608	0.010840782045477651263	0.017508593224720633343	0.030379758389878290466
25.434343434343432	0.0	0.00066687550217638323806	0.005654218037831619095	0.010802702757587245302	0.021750090967435693556
25.575757575757574	0.0013230882116716165117	0.0	0.0023550234132296210992	0.0060134965846926001855	0.015074226491547252889
25.717171717171716	0.00393033737105557952	0.0007297258054995863538	0.0006011659288240549729	0.002853818752906301008	0.010134493576333805543
25.858585858585858	0.007320558175115821874	0.0024015933525840396975	0.0	0.0009660131838100019416	0.0066175399895177030294
26.0	0.011067079142491462495	0.0046138668882901384205	0.00018277479419056607709	0.0	0.004196927088304345914
